n1, 1.5, n2, 1, n1 / n2, 1.5
Critical Angle (rad), 0.729728 , 0
Brewster Angle (rad), 0.588003 , 0
angle (rad), r_{TE}, t_{TE}, r_{TM}, t_{TM}
0 , 0.2 , 1.2 , 0.2 , 1.2
0.00785398 , 0.200019 , 1.20002 , 0.199981 , 1.20003
0.015708 , 0.200074 , 1.20007 , 0.199926 , 1.20011
0.0235619 , 0.200167 , 1.20017 , 0.199833 , 1.20025
0.0314159 , 0.200296 , 1.2003 , 0.199704 , 1.20044
0.0392699 , 0.200464 , 1.20046 , 0.199536 , 1.2007
0.0471239 , 0.200668 , 1.20067 , 0.199332 , 1.201
0.0549779 , 0.20091 , 1.20091 , 0.19909 , 1.20137
0.0628319 , 0.20119 , 1.20119 , 0.198809 , 1.20179
0.0706858 , 0.201508 , 1.20151 , 0.198491 , 1.20226
0.0785398 , 0.201865 , 1.20186 , 0.198134 , 1.2028
0.0863938 , 0.20226 , 1.20226 , 0.197738 , 1.20339
0.0942478 , 0.202694 , 1.20269 , 0.197303 , 1.20405
0.102102 , 0.203168 , 1.20317 , 0.196828 , 1.20476
0.109956 , 0.203682 , 1.20368 , 0.196313 , 1.20553
0.11781 , 0.204236 , 1.20424 , 0.195756 , 1.20637
0.125664 , 0.204831 , 1.20483 , 0.195159 , 1.20726
0.133518 , 0.205468 , 1.20547 , 0.19452 , 1.20822
0.141372 , 0.206147 , 1.20615 , 0.193837 , 1.20924
0.149226 , 0.206869 , 1.20687 , 0.193112 , 1.21033
0.15708 , 0.207634 , 1.20763 , 0.192342 , 1.21149
0.164934 , 0.208443 , 1.20844 , 0.191527 , 1.21271
0.172788 , 0.209298 , 1.2093 , 0.190666 , 1.214
0.180642 , 0.210199 , 1.2102 , 0.189758 , 1.21536
0.188496 , 0.211146 , 1.21115 , 0.188802 , 1.2168
0.19635 , 0.212142 , 1.21214 , 0.187796 , 1.21831
0.204204 , 0.213186 , 1.21319 , 0.186741 , 1.21989
0.212058 , 0.214281 , 1.21428 , 0.185634 , 1.22155
0.219911 , 0.215427 , 1.21543 , 0.184474 , 1.22329
0.227765 , 0.216625 , 1.21662 , 0.183259 , 1.22511
0.235619 , 0.217877 , 1.21788 , 0.181989 , 1.22702
0.243473 , 0.219184 , 1.21918 , 0.180661 , 1.22901
0.251327 , 0.220548 , 1.22055 , 0.179274 , 1.23109
0.259181 , 0.221971 , 1.22197 , 0.177827 , 1.23326
0.267035 , 0.223453 , 1.22345 , 0.176316 , 1.23553
0.274889 , 0.224997 , 1.225 , 0.17474 , 1.23789
0.282743 , 0.226604 , 1.2266 , 0.173097 , 1.24035
0.290597 , 0.228278 , 1.22828 , 0.171385 , 1.24292
0.298451 , 0.230019 , 1.23002 , 0.169601 , 1.2456
0.306305 , 0.23183 , 1.23183 , 0.167742 , 1.24839
0.314159 , 0.233713 , 1.23371 , 0.165806 , 1.25129
0.322013 , 0.235672 , 1.23567 , 0.16379 , 1.25431
0.329867 , 0.237708 , 1.23771 , 0.161691 , 1.25746
0.337721 , 0.239824 , 1.23982 , 0.159504 , 1.26074
0.345575 , 0.242024 , 1.24202 , 0.157227 , 1.26416
0.353429 , 0.244311 , 1.24431 , 0.154856 , 1.26772
0.361283 , 0.246687 , 1.24669 , 0.152386 , 1.27142
0.369137 , 0.249158 , 1.24916 , 0.149814 , 1.27528
0.376991 , 0.251727 , 1.25173 , 0.147134 , 1.2793
0.384845 , 0.254397 , 1.2544 , 0.144341 , 1.28349
0.392699 , 0.257175 , 1.25717 , 0.14143 , 1.28785
0.400553 , 0.260063 , 1.26006 , 0.138395 , 1.29241
0.408407 , 0.263068 , 1.26307 , 0.13523 , 1.29715
0.416261 , 0.266195 , 1.26619 , 0.131928 , 1.30211
0.424115 , 0.269449 , 1.26945 , 0.128481 , 1.30728
0.431969 , 0.272838 , 1.27284 , 0.124882 , 1.31268
0.439823 , 0.276368 , 1.27637 , 0.121122 , 1.31832
0.447677 , 0.280047 , 1.28005 , 0.117191 , 1.32421
0.455531 , 0.283883 , 1.28388 , 0.113079 , 1.33038
0.463385 , 0.287883 , 1.28788 , 0.108776 , 1.33684
0.471239 , 0.292059 , 1.29206 , 0.104269 , 1.3436
0.479093 , 0.296419 , 1.29642 , 0.099545 , 1.35068
0.486947 , 0.300976 , 1.30098 , 0.094589 , 1.35812
0.494801 , 0.305741 , 1.30574 , 0.0893853 , 1.36592
0.502655 , 0.310728 , 1.31073 , 0.0839162 , 1.37413
0.510509 , 0.315951 , 1.31595 , 0.0781622 , 1.38276
0.518363 , 0.321427 , 1.32143 , 0.0721015 , 1.39185
0.526217 , 0.327174 , 1.32717 , 0.06571 , 1.40143
0.534071 , 0.333211 , 1.33321 , 0.0589608 , 1.41156
0.541925 , 0.33956 , 1.33956 , 0.0518235 , 1.42226
0.549779 , 0.346246 , 1.34625 , 0.0442641 , 1.4336
0.557633 , 0.353296 , 1.3533 , 0.0362439 , 1.44563
0.565487 , 0.360742 , 1.36074 , 0.0277192 , 1.45842
0.573341 , 0.368618 , 1.36862 , 0.0186398 , 1.47204
0.581195 , 0.376965 , 1.37696 , 0.00894792 , 1.48658
0.589049 , 0.385827 , 1.38583 , 0.00142312 , 1.50213
0.596903 , 0.395258 , 1.39526 , 0.0125512 , 1.51883
0.604757 , 0.405319 , 1.40532 , 0.0245277 , 1.53679
0.612611 , 0.416082 , 1.41608 , 0.0374611 , 1.55619
0.620465 , 0.427629 , 1.42763 , 0.0514813 , 1.57722
0.628319 , 0.440064 , 1.44006 , 0.0667456 , 1.60012
0.636173 , 0.453507 , 1.45351 , 0.0834467 , 1.62517
0.644026 , 0.468108 , 1.46811 , 0.101825 , 1.65274
0.65188 , 0.484053 , 1.48405 , 0.122185 , 1.68328
0.659734 , 0.501579 , 1.50158 , 0.144921 , 1.71738
0.667588 , 0.520993 , 1.52099 , 0.170554 , 1.75583
0.675442 , 0.54271 , 1.54271 , 0.199799 , 1.7997
0.683296 , 0.567301 , 1.5673 , 0.23367 , 1.85051
0.69115 , 0.595604 , 1.5956 , 0.273683 , 1.91052
0.699004 , 0.628922 , 1.62892 , 0.322258 , 1.98339
0.706858 , 0.66949 , 1.66949 , 0.383668 , 2.0755
0.714712 , 0.721779 , 1.72178 , 0.466732 , 2.2001
0.722566 , 0.797883 , 1.79788 , 0.596241 , 2.39436
0.73042 , 1 , 1.99876 , 1 , 2.99062
0.738274 , 1 , 1.98464 , 1 , 2.88853
0.746128 , 1 , 1.97039 , 1 , 2.79354
0.753982 , 1 , 1.95603 , 1 , 2.70482
0.761836 , 1 , 1.94154 , 1 , 2.62167
0.76969 , 1 , 1.92694 , 1 , 2.54347
0.777544 , 1 , 1.91221 , 1 , 2.46973
0.785398 , 1 , 1.89737 , 1 , 2.4
0.793252 , 1 , 1.88241 , 1 , 2.3339
0.801106 , 1 , 1.86733 , 1 , 2.27109
0.80896 , 1 , 1.85214 , 1 , 2.21129
0.816814 , 1 , 1.83683 , 1 , 2.15423
0.824668 , 1 , 1.82141 , 1 , 2.0997
0.832522 , 1 , 1.80588 , 1 , 2.04748
0.840376 , 1 , 1.79024 , 1 , 1.99741
0.84823 , 1 , 1.77449 , 1 , 1.94932
0.856084 , 1 , 1.75862 , 1 , 1.90306
0.863938 , 1 , 1.74265 , 1 , 1.85851
0.871792 , 1 , 1.72657 , 1 , 1.81555
0.879646 , 1 , 1.71039 , 1 , 1.77407
0.8875 , 1 , 1.6941 , 1 , 1.73398
0.895354 , 1 , 1.6777 , 1 , 1.69518
0.903208 , 1 , 1.6612 , 1 , 1.6576
0.911062 , 1 , 1.6446 , 1 , 1.62117
0.918916 , 1 , 1.6279 , 1 , 1.58581
0.92677 , 1 , 1.6111 , 1 , 1.55146
0.934624 , 1 , 1.59419 , 1 , 1.51806
0.942478 , 1 , 1.57719 , 1 , 1.48557
0.950332 , 1 , 1.5601 , 1 , 1.45393
0.958186 , 1 , 1.5429 , 1 , 1.4231
0.96604 , 1 , 1.52561 , 1 , 1.39304
0.973894 , 1 , 1.50823 , 1 , 1.3637
0.981748 , 1 , 1.49075 , 1 , 1.33505
0.989602 , 1 , 1.47318 , 1 , 1.30705
0.997456 , 1 , 1.45552 , 1 , 1.27968
1.00531 , 1 , 1.43777 , 1 , 1.2529
1.01316 , 1 , 1.41994 , 1 , 1.22668
1.02102 , 1 , 1.40201 , 1 , 1.20101
1.02887 , 1 , 1.384 , 1 , 1.17585
1.03673 , 1 , 1.3659 , 1 , 1.15117
1.04458 , 1 , 1.34772 , 1 , 1.12697
1.05243 , 1 , 1.32946 , 1 , 1.10322
1.06029 , 1 , 1.31111 , 1 , 1.07989
1.06814 , 1 , 1.29268 , 1 , 1.05698
1.076 , 1 , 1.27417 , 1 , 1.03446
1.08385 , 1 , 1.25559 , 1 , 1.01231
1.0917 , 1 , 1.23692 , 1 , 0.990528
1.09956 , 1 , 1.21818 , 1 , 0.969089
1.10741 , 1 , 1.19937 , 1 , 0.947983
1.11527 , 1 , 1.18048 , 1 , 0.927195
1.12312 , 1 , 1.16152 , 1 , 0.906712
1.13097 , 1 , 1.14249 , 1 , 0.886524
1.13883 , 1 , 1.12338 , 1 , 0.866617
1.14668 , 1 , 1.10421 , 1 , 0.846981
1.15454 , 1 , 1.08497 , 1 , 0.827606
1.16239 , 1 , 1.06566 , 1 , 0.808481
1.17024 , 1 , 1.04629 , 1 , 0.789597
1.1781 , 1 , 1.02685 , 1 , 0.770945
1.18595 , 1 , 1.00735 , 1 , 0.752515
1.19381 , 1 , 0.987782 , 1 , 0.734299
1.20166 , 1 , 0.968157 , 1 , 0.716289
1.20951 , 1 , 0.948473 , 1 , 0.698478
1.21737 , 1 , 0.92873 , 1 , 0.680857
1.22522 , 1 , 0.908929 , 1 , 0.663419
1.23308 , 1 , 0.889073 , 1 , 0.646159
1.24093 , 1 , 0.869162 , 1 , 0.629068
1.24878 , 1 , 0.849197 , 1 , 0.61214
1.25664 , 1 , 0.82918 , 1 , 0.59537
1.26449 , 1 , 0.809111 , 1 , 0.57875
1.27235 , 1 , 0.788993 , 1 , 0.562276
1.2802 , 1 , 0.768826 , 1 , 0.545942
1.28805 , 1 , 0.748612 , 1 , 0.529742
1.29591 , 1 , 0.728351 , 1 , 0.51367
1.30376 , 1 , 0.708046 , 1 , 0.497723
1.31161 , 1 , 0.687697 , 1 , 0.481894
1.31947 , 1 , 0.667305 , 1 , 0.46618
1.32732 , 1 , 0.646872 , 1 , 0.450575
1.33518 , 1 , 0.6264 , 1 , 0.435075
1.34303 , 1 , 0.605888 , 1 , 0.419675
1.35088 , 1 , 0.58534 , 1 , 0.404371
1.35874 , 1 , 0.564755 , 1 , 0.38916
1.36659 , 1 , 0.544135 , 1 , 0.374036
1.37445 , 1 , 0.523482 , 1 , 0.358996
1.3823 , 1 , 0.502797 , 1 , 0.344036
1.39015 , 1 , 0.48208 , 1 , 0.329152
1.39801 , 1 , 0.461334 , 1 , 0.31434
1.40586 , 1 , 0.44056 , 1 , 0.299597
1.41372 , 1 , 0.419758 , 1 , 0.284919
1.42157 , 1 , 0.39893 , 1 , 0.270303
1.42942 , 1 , 0.378078 , 1 , 0.255745
1.43728 , 1 , 0.357202 , 1 , 0.241242
1.44513 , 1 , 0.336304 , 1 , 0.226791
1.45299 , 1 , 0.315386 , 1 , 0.212387
1.46084 , 1 , 0.294448 , 1 , 0.198028
1.46869 , 1 , 0.273492 , 1 , 0.183712
1.47655 , 1 , 0.252519 , 1 , 0.169433
1.4844 , 1 , 0.231531 , 1 , 0.15519
1.49226 , 1 , 0.210528 , 1 , 0.14098
1.50011 , 1 , 0.189512 , 1 , 0.126799
1.50796 , 1 , 0.168485 , 1 , 0.112644
1.51582 , 1 , 0.147447 , 1 , 0.0985129
1.52367 , 1 , 0.1264 , 1 , 0.084402
1.53153 , 1 , 0.105345 , 1 , 0.0703084
1.53938 , 1 , 0.0842839 , 1 , 0.0562294
1.54723 , 1 , 0.0632175 , 1 , 0.0421619
1.55509 , 1 , 0.0421472 , 1 , 0.0281031
1.56294 , 1 , 0.0210742 , 1 , 0.0140501
1.5708 , 1 , 1.50595e-14 , 1 , 1.00397e-14
1.57865 , 1 , 0.0210742 , 1 , 0.0140501
